Exported from: CypherGraph V1.21.0
Acquired by  : CypherGraph V1.21.0 | C60-0504-0348 V1.23.1 : 14/07/2017
Graph title  : Title
Points       : 99
Pen legend   : 17:00:12
Resonance    : N/A
Capacitance  : N/A
Frequency (Hz)	Impedance (Ohms)	Admittance (S)	Phase angle (Degrees)	Resistance (Ohms)	Reactance (S)	Conductance (S)	Susceptance (S)
3.99999900e+006	1.74349106e+002	5.73561875e-003	-1.32301598e+001	1.69721631e+002	-3.99021148e+001	5.58338721e-003	1.31267274e-003
3.50667900e+006	1.79584000e+002	5.56842482e-003	-1.19976702e+001	1.75661176e+002	-3.73304701e+001	5.44678845e-003	1.15751914e-003
3.07420000e+006	1.84976105e+002	5.40610368e-003	-1.09555502e+001	1.81604900e+002	-3.51542270e+001	5.30757699e-003	1.02741593e-003
2.69505900e+006	1.88660507e+002	5.30052640e-003	-1.01504297e+001	1.85707677e+002	-3.32482417e+001	5.21756494e-003	9.34128640e-004
2.36267700e+006	1.91786804e+002	5.21412307e-003	-9.36523914e+000	1.89230491e+002	-3.12089656e+001	5.14462438e-003	8.48480624e-004
2.07128800e+006	1.93051804e+002	5.17995679e-003	-8.77827835e+000	1.90790455e+002	-2.94618623e+001	5.11928038e-003	7.90519285e-004
1.81583600e+006	1.94964905e+002	5.12912825e-003	-8.30401897e+000	1.92920827e+002	-2.81579254e+001	5.07535273e-003	7.40777477e-004
1.59188900e+006	1.96250900e+002	5.09551803e-003	-7.85673189e+000	1.94408688e+002	-2.68268118e+001	5.04768627e-003	6.96539495e-004
1.39556100e+006	1.96897003e+002	5.07879746e-003	-7.48232079e+000	1.95220443e+002	-2.56399800e+001	5.03555196e-003	6.61362353e-004
1.22344600e+006	1.98195694e+002	5.04551830e-003	-7.09465694e+000	1.96678201e+002	-2.44789396e+001	5.00688708e-003	6.23166603e-004
1.07255900e+006	1.98848297e+002	5.02895933e-003	-6.65136719e+000	1.97509913e+002	-2.30321388e+001	4.99511103e-003	5.82492739e-004
9.40280313e+005	1.98848297e+002	5.02895933e-003	-6.41752195e+000	1.97602271e+002	-2.22258383e+001	4.99744679e-003	5.62101052e-004
8.24315375e+005	2.00159805e+002	4.99600806e-003	-6.17463779e+000	1.98998613e+002	-2.15290446e+001	4.96702458e-003	5.37367031e-004
7.22652563e+005	2.01479996e+002	4.96327189e-003	-5.96775293e+000	2.00388089e+002	-2.09476157e+001	4.93637378e-003	5.16024988e-004
6.33527750e+005	2.02143402e+002	4.94698313e-003	-5.70994711e+000	2.01140430e+002	-2.01117524e+001	4.92243774e-003	4.92187717e-004
5.55394813e+005	2.02143402e+002	4.94698313e-003	-5.57784986e+000	2.01186263e+002	-1.96479637e+001	4.92355941e-003	4.80837582e-004
4.86897906e+005	2.04146606e+002	4.89844048e-003	-5.44037819e+000	2.03227007e+002	-1.93551182e+001	4.87637494e-003	4.64420625e-004
4.26848781e+005	2.04818802e+002	4.88236427e-003	-5.43002510e+000	2.03899680e+002	-1.93820056e+001	4.86045472e-003	4.62018187e-004
3.74205469e+005	2.06169693e+002	4.85037343e-003	-5.45947981e+000	2.05234452e+002	-1.96153503e+001	4.82837083e-003	4.61473131e-004
3.28054688e+005	2.07529602e+002	4.81858969e-003	-5.44136000e+000	2.06594426e+002	-1.96793999e+001	4.79687602e-003	4.56932179e-004
2.87595656e+005	2.09586197e+002	4.77130658e-003	-5.46400404e+000	2.08633883e+002	-1.99568769e+001	4.74962680e-003	4.54325616e-004
2.52126438e+005	2.10276199e+002	4.75564996e-003	-5.52780199e+000	2.09298325e+002	-2.02556421e+001	4.73353416e-003	4.58105786e-004
2.21031688e+005	2.11663193e+002	4.72448699e-003	-5.58915091e+000	2.10656916e+002	-2.06148201e+001	4.70202611e-003	4.60138808e-004
1.93771844e+005	2.13059204e+002	4.69353110e-003	-5.64835596e+000	2.12024735e+002	-2.09698851e+001	4.67074254e-003	4.61950509e-004
1.69873984e+005	2.14464600e+002	4.66277419e-003	-5.70567894e+000	2.13402082e+002	-2.13217221e+001	4.63967351e-003	4.63565435e-004
1.48923375e+005	2.16589905e+002	4.61702036e-003	-5.80529785e+000	2.15479093e+002	-2.19076981e+001	4.59334133e-003	4.67003707e-004
1.30556680e+005	2.18018494e+002	4.58676685e-003	-5.85952520e+000	2.16879387e+002	-2.22574720e+001	4.56280184e-003	4.68262270e-004
1.14455078e+005	2.20179001e+002	4.54175919e-003	-6.04432106e+000	2.18954969e+002	-2.31843518e+001	4.51651037e-003	4.78236991e-004
1.00339266e+005	2.21631302e+002	4.51199804e-003	-6.14011383e+000	2.20359870e+002	-2.37057283e+001	4.48611408e-003	4.82604211e-004
8.79644844e+004	2.23827606e+002	4.46772414e-003	-6.27887821e+000	2.22484941e+002	-2.44795519e+001	4.44092379e-003	4.88625541e-004
7.71158203e+004	2.26045700e+002	4.42388420e-003	-6.32889700e+000	2.24668061e+002	-2.49182832e+001	4.39692277e-003	4.87669525e-004
6.76051328e+004	2.27536697e+002	4.39489547e-003	-6.42211199e+000	2.26108865e+002	-2.54505361e+001	4.36731673e-003	4.91579807e-004
5.92673477e+004	2.29791595e+002	4.35176925e-003	-6.51466990e+000	2.28307794e+002	-2.60716034e+001	4.32366918e-003	4.93741305e-004
5.19579023e+004	2.32068802e+002	4.30906693e-003	-6.56270790e+000	2.30548140e+002	-2.65232756e+001	4.28083119e-003	4.92485715e-004
4.55499414e+004	2.34368607e+002	4.26678306e-003	-6.69813108e+000	2.32768913e+002	-2.73363655e+001	4.23765994e-003	4.97670498e-004
3.99322813e+004	2.35914398e+002	4.23882564e-003	-6.74522209e+000	2.34281459e+002	-2.77092277e+001	4.20948557e-003	4.97869506e-004
3.50073945e+004	2.39036804e+002	4.18345620e-003	-6.87981510e+000	2.37315644e+002	-2.86335232e+001	4.15333366e-003	5.01124044e-004
3.06899727e+004	2.41405594e+002	4.14240608e-003	-6.97012281e+000	2.39621502e+002	-2.92949933e+001	4.11179190e-003	5.02688262e-004
2.69049648e+004	2.42997894e+002	4.11526200e-003	-7.06013298e+000	2.41155412e+002	-2.98671073e+001	4.08405885e-003	5.05810851e-004
2.35867344e+004	2.45406006e+002	4.07487990e-003	-7.23777199e+000	2.43450577e+002	-3.09180287e+001	4.04241069e-003	5.13382927e-004
2.06778105e+004	2.47024597e+002	4.04817986e-003	-7.41518116e+000	2.44958731e+002	-3.18805860e+001	4.01432494e-003	5.22451399e-004
1.81275859e+004	2.51118103e+002	3.98219001e-003	-7.63633490e+000	2.48891054e+002	-3.33698182e+001	3.94687383e-003	5.29173145e-004
1.58919443e+004	2.51944901e+002	3.96912181e-003	-7.76942301e+000	2.49632078e+002	-3.40596303e+001	3.93268578e-003	5.36572962e-004
1.39319570e+004	2.55279404e+002	3.91727646e-003	-7.99024677e+000	2.52801086e+002	-3.54849934e+001	3.87924655e-003	5.44519172e-004
1.22137051e+004	2.58657990e+002	3.86610907e-003	-8.16699028e+000	2.56034742e+002	-3.67446105e+001	3.82689992e-003	5.49214321e-004
1.07073799e+004	2.60364105e+002	3.84077521e-003	-8.34361458e+000	2.57608312e+002	-3.77812801e+001	3.80012297e-003	5.57332601e-004
9.38687109e+003	2.64678589e+002	3.77816734e-003	-8.60802555e+000	2.61697097e+002	-3.96154606e+001	3.73560789e-003	5.65492811e-004
8.22916797e+003	2.67301514e+002	3.74109367e-003	-8.82840061e+000	2.64134640e+002	-4.10242780e+001	3.69677079e-003	5.74166845e-004
7.21424072e+003	2.69950500e+002	3.70438283e-003	-9.04869556e+000	2.66590975e+002	-4.24561526e+001	3.65828190e-003	5.82602523e-004
6.32450293e+003	2.73523285e+002	3.65599587e-003	-9.35681057e+000	2.69884057e+002	-4.44700284e+001	3.60735283e-003	5.94399998e-004
5.54451416e+003	2.77143402e+002	3.60824033e-003	-9.70880985e+000	2.73174030e+002	-4.67377239e+001	3.55656149e-003	6.08497042e-004
4.86068262e+003	2.79889893e+002	3.57283356e-003	-9.97286510e+000	2.75660723e+002	-4.84718242e+001	3.51884762e-003	6.18749603e-004
4.26120459e+003	2.84528015e+002	3.51459240e-003	-1.02368698e+001	2.79998742e+002	-5.05657592e+001	3.45864519e-003	6.24606449e-004
3.73570776e+003	2.88293701e+002	3.46868487e-003	-1.05447798e+001	2.83425049e+002	-5.27588824e+001	3.41010635e-003	6.34782988e-004
3.27495142e+003	2.93071014e+002	3.41214228e-003	-1.08526602e+001	2.87829326e+002	-5.51805973e+001	3.35111480e-003	6.42451965e-004
2.87106714e+003	2.96949890e+002	3.36757154e-003	-1.12483902e+001	2.91245709e+002	-5.79238668e+001	3.30288306e-003	6.56887818e-004
2.51696021e+003	3.00880005e+002	3.32358410e-003	-1.16441002e+001	2.94687952e+002	-6.07271633e+001	3.25518537e-003	6.70805075e-004
2.20655029e+003	3.05865906e+002	3.26940656e-003	-1.19958401e+001	2.99186618e+002	-6.35713755e+001	3.19801153e-003	6.79515659e-004
1.93441284e+003	3.10934387e+002	3.21611260e-003	-1.22596598e+001	3.03843628e+002	-6.60245618e+001	3.14277018e-003	6.82917149e-004
1.69583777e+003	3.16087006e+002	3.16368589e-003	-1.26553001e+001	3.08407913e+002	-6.92499421e+001	3.08682655e-003	6.93116328e-004
1.48671216e+003	3.21324890e+002	3.11211497e-003	-1.30509300e+001	3.13024979e+002	-7.25606483e+001	3.03172817e-003	7.02768713e-004
1.30333960e+003	3.27725098e+002	3.05133787e-003	-1.34904804e+001	3.18682734e+002	-7.64529572e+001	2.96714747e-003	7.11827703e-004
1.14256079e+003	3.34252686e+002	2.99174859e-003	-1.39300203e+001	3.24422475e+002	-8.04668617e+001	2.90376270e-003	7.20223443e-004
1.00169299e+003	3.38676605e+002	2.95266926e-003	-1.43256102e+001	3.28145534e+002	-8.37994705e+001	2.86085669e-003	7.30585214e-004
8.78113281e+002	3.45422394e+002	2.89500628e-003	-1.48090801e+001	3.33948462e+002	-8.82896098e+001	2.79884255e-003	7.39960638e-004
7.69794800e+002	3.53462494e+002	2.82915449e-003	-1.52925396e+001	3.40947012e+002	-9.32248329e+001	2.72897913e-003	7.46182293e-004
6.74889404e+002	3.61689789e+002	2.76480020e-003	-1.57320404e+001	3.48140988e+002	-9.80681176e+001	2.66123154e-003	7.49644473e-004
5.91668274e+002	3.68894012e+002	2.71080572e-003	-1.62154903e+001	3.54218753e+002	-1.03013918e+002	2.60296505e-003	7.56994445e-004
5.18641296e+002	3.77480408e+002	2.64914411e-003	-1.67428703e+001	3.61477962e+002	-1.08743465e+002	2.53683952e-003	7.63157778e-004
4.54675507e+002	3.87538513e+002	2.58038870e-003	-1.72263107e+001	3.70154493e+002	-1.14768248e+002	2.46463883e-003	7.64173575e-004
3.98638397e+002	3.96558899e+002	2.52169351e-003	-1.77976303e+001	3.77580397e+002	-1.21210577e+002	2.40101039e-003	7.70770563e-004
3.49456909e+002	4.08465790e+002	2.44818544e-003	-1.82371101e+001	3.87948371e+002	-1.27829428e+002	2.32521200e-003	7.66159987e-004
3.06355988e+002	4.19349396e+002	2.38464634e-003	-1.87644806e+001	3.97060498e+002	-1.34895801e+002	2.25789967e-003	7.67090116e-004
2.68560791e+002	4.30523102e+002	2.32275573e-003	-1.93357906e+001	4.06239148e+002	-1.42547872e+002	2.19173908e-003	7.69073450e-004
2.35415405e+002	4.41994507e+002	2.26247156e-003	-1.99070892e+001	4.15583569e+002	-1.50497313e+002	2.12727984e-003	7.70362266e-004
2.06383408e+002	4.55265594e+002	2.19652004e-003	-2.06541805e+001	4.26004038e+002	-1.60584311e+002	2.05534180e-003	7.74771166e-004
1.80928299e+002	4.68935211e+002	2.13249075e-003	-2.12694302e+001	4.36993645e+002	-1.70108161e+002	1.98723594e-003	7.73569720e-004
1.58632706e+002	4.84605499e+002	2.06353416e-003	-2.18407307e+001	4.49821288e+002	-1.80286712e+002	1.91541696e-003	7.67692047e-004
1.39079300e+002	5.00799500e+002	1.99680711e-003	-2.24120293e+001	4.62972114e+002	-1.90937059e+002	1.84598029e-003	7.61311617e-004
1.21910500e+002	5.15836182e+002	1.93859996e-003	-2.31151695e+001	4.74423610e+002	-2.02507295e+002	1.78296448e-003	7.61056799e-004
1.06887703e+002	5.33073792e+002	1.87591290e-003	-2.37743492e+001	4.87837277e+002	-2.14901043e+002	1.71672338e-003	7.56247340e-004
9.36535034e+001	5.50887512e+002	1.81525262e-003	-2.43896008e+001	5.01725553e+002	-2.27483012e+002	1.65325698e-003	7.49588843e-004
8.21480026e+001	5.71170715e+002	1.75079004e-003	-2.50048409e+001	5.17636071e+002	-2.41430910e+002	1.58669213e-003	7.40049904e-004
7.20136032e+001	5.90257385e+002	1.69417618e-003	-2.57519093e+001	5.31635242e+002	-2.56452237e+002	1.52591697e-003	7.36077653e-004
6.31310997e+001	6.14005188e+002	1.62865073e-003	-2.60595303e+001	5.51584250e+002	-2.69735399e+002	1.46307900e-003	7.15474013e-004
5.53217010e+001	6.36612488e+002	1.57081430e-003	-2.62792702e+001	5.70816471e+002	-2.81858148e+002	1.40846542e-003	6.95473020e-004
4.84660988e+001	6.60052124e+002	1.51503186e-003	-2.66308308e+001	5.90029286e+002	-2.95861874e+002	1.35430693e-003	6.79098134e-004
4.25046997e+001	6.86607971e+002	1.45643517e-003	-2.68945103e+001	6.12345054e+002	-3.10586608e+002	1.29890842e-003	6.58817374e-004
3.72587013e+001	7.16583801e+002	1.39551019e-003	-2.75976391e+001	6.35052809e+002	-3.31964266e+002	1.23673277e-003	6.46483380e-004
3.26683998e+001	7.45414124e+002	1.34153616e-003	-2.80370903e+001	6.57934928e+002	-3.50376720e+002	1.18409817e-003	6.30579733e-004
2.86145992e+001	7.75404419e+002	1.28964960e-003	-2.90478401e+001	6.77869865e+002	-3.76489652e+002	1.12743051e-003	6.26176120e-004
2.50974007e+001	8.11921387e+002	1.23164633e-003	-3.01904202e+001	7.01791472e+002	-4.08295319e+002	1.06458446e-003	6.19364684e-004
2.19974995e+001	8.41815674e+002	1.18790851e-003	-3.14208908e+001	7.18372475e+002	-4.38856032e+002	1.01371452e-003	6.19281429e-004
1.92553005e+001	8.81460327e+002	1.13448101e-003	-3.25634689e+001	7.42891008e+002	-4.74431511e+002	9.56135759e-004	6.10615727e-004
1.68707008e+001	9.29059570e+002	1.07635725e-003	-3.40576096e+001	7.69702533e+002	-5.20297699e+002	8.91734959e-004	6.02788256e-004
1.47841997e+001	9.76015930e+002	1.02457344e-003	-3.51562386e+001	7.97975914e+002	-5.61997808e+002	8.37675803e-004	5.89957613e-004
1.29958000e+001	1.02197998e+003	9.78492748e-004	-3.65185509e+001	8.21328755e+002	-6.08162937e+002	7.86379622e-004	5.82284423e-004
1.13862000e+001	1.08784302e+003	9.19250281e-004	-3.75732307e+001	8.62196770e+002	-6.63339400e+002	7.28574446e-004	5.60535776e-004
9.95552826e+000	1.14282397e+003	8.75025395e-004	-3.90234299e+001	8.87846860e+002	-7.19565557e+002	6.79797210e-004	5.50949358e-004
